"S11 Log Mag"
"Frequency (Hz)","dB",
3000000000, -1.038329e+001,
3001000000, -1.039247e+001,
3002000000, -1.043677e+001,
3003000000, -1.047379e+001,
3004000000, -1.051092e+001,
3005000000, -1.055836e+001,
3006000000, -1.059489e+001,
3007000000, -1.063222e+001,
3008000000, -1.066222e+001,
3009000000, -1.069794e+001,
3010000000, -1.072985e+001,
3011000000, -1.076102e+001,
3012000000, -1.077824e+001,
3013000000, -1.079291e+001,
3014000000, -1.080311e+001,
3015000000, -1.081630e+001,
3016000000, -1.082597e+001,
3017000000, -1.082724e+001,
3018000000, -1.082136e+001,
3019000000, -1.082262e+001,
3020000000, -1.081522e+001,
3021000000, -1.080305e+001,
3022000000, -1.080103e+001,
3023000000, -1.079563e+001,
3024000000, -1.078797e+001,
3025000000, -1.077968e+001,
3026000000, -1.078272e+001,
3027000000, -1.077176e+001,
3028000000, -1.078527e+001,
3029000000, -1.079391e+001,
3030000000, -1.081087e+001,
3031000000, -1.081590e+001,
3032000000, -1.084027e+001,
3033000000, -1.085537e+001,
3034000000, -1.085898e+001,
3035000000, -1.086796e+001,
3036000000, -1.085558e+001,
3037000000, -1.085448e+001,
3038000000, -1.083774e+001,
3039000000, -1.082238e+001,
3040000000, -1.079949e+001,
3041000000, -1.079446e+001,
3042000000, -1.079158e+001,
3043000000, -1.078678e+001,
3044000000, -1.079291e+001,
3045000000, -1.079363e+001,
3046000000, -1.081120e+001,
3047000000, -1.081169e+001,
3048000000, -1.082623e+001,
3049000000, -1.083619e+001,
3050000000, -1.085194e+001,
3051000000, -1.087490e+001,
3052000000, -1.092241e+001,
3053000000, -1.094131e+001,
3054000000, -1.097551e+001,
3055000000, -1.100539e+001,
3056000000, -1.103543e+001,
3057000000, -1.105398e+001,
3058000000, -1.108270e+001,
3059000000, -1.110460e+001,
3060000000, -1.112981e+001,
3061000000, -1.113756e+001,
3062000000, -1.115889e+001,
3063000000, -1.117510e+001,
3064000000, -1.118296e+001,
3065000000, -1.120854e+001,
3066000000, -1.121682e+001,
3067000000, -1.124821e+001,
3068000000, -1.126288e+001,
3069000000, -1.127646e+001,
3070000000, -1.129907e+001,
3071000000, -1.131899e+001,
3072000000, -1.133653e+001,
3073000000, -1.135758e+001,
3074000000, -1.137478e+001,
3075000000, -1.138288e+001,
3076000000, -1.140251e+001,
3077000000, -1.141180e+001,
3078000000, -1.141650e+001,
3079000000, -1.144648e+001,
3080000000, -1.145719e+001,
3081000000, -1.148836e+001,
3082000000, -1.151205e+001,
3083000000, -1.153244e+001,
3084000000, -1.157029e+001,
3085000000, -1.159032e+001,
3086000000, -1.161549e+001,
3087000000, -1.164094e+001,
3088000000, -1.167206e+001,
3089000000, -1.169059e+001,
3090000000, -1.171283e+001,
3091000000, -1.173727e+001,
3092000000, -1.175286e+001,
3093000000, -1.177394e+001,
3094000000, -1.178443e+001,
3095000000, -1.179441e+001,
3096000000, -1.179207e+001,
3097000000, -1.179062e+001,
3098000000, -1.179628e+001,
3099000000, -1.178076e+001,
3100000000, -1.177998e+001,
3101000000, -1.177584e+001,
3102000000, -1.177159e+001,
3103000000, -1.179536e+001,
3104000000, -1.179195e+001,
3105000000, -1.179088e+001,
3106000000, -1.181290e+001,
3107000000, -1.181770e+001,
3108000000, -1.181920e+001,
3109000000, -1.183315e+001,
3110000000, -1.184073e+001,
3111000000, -1.186789e+001,
3112000000, -1.187119e+001,
3113000000, -1.189383e+001,
3114000000, -1.191912e+001,
3115000000, -1.196046e+001,
3116000000, -1.198854e+001,
3117000000, -1.201408e+001,
3118000000, -1.202404e+001,
3119000000, -1.202811e+001,
3120000000, -1.203265e+001,
3121000000, -1.204473e+001,
3122000000, -1.204805e+001,
3123000000, -1.206606e+001,
3124000000, -1.208867e+001,
3125000000, -1.211802e+001,
3126000000, -1.215235e+001,
3127000000, -1.216662e+001,
3128000000, -1.219301e+001,
3129000000, -1.222536e+001,
3130000000, -1.225707e+001,
3131000000, -1.227455e+001,
3132000000, -1.230899e+001,
3133000000, -1.233278e+001,
3134000000, -1.237492e+001,
3135000000, -1.240867e+001,
3136000000, -1.243486e+001,
3137000000, -1.248859e+001,
3138000000, -1.251728e+001,
3139000000, -1.255335e+001,
3140000000, -1.260560e+001,
3141000000, -1.264250e+001,
3142000000, -1.265830e+001,
3143000000, -1.268488e+001,
3144000000, -1.269291e+001,
3145000000, -1.272898e+001,
3146000000, -1.274346e+001,
3147000000, -1.274823e+001,
3148000000, -1.274928e+001,
3149000000, -1.277128e+001,
3150000000, -1.278813e+001,
3151000000, -1.278773e+001,
3152000000, -1.280309e+001,
3153000000, -1.279571e+001,
3154000000, -1.277857e+001,
3155000000, -1.275112e+001,
3156000000, -1.273184e+001,
3157000000, -1.272328e+001,
3158000000, -1.271963e+001,
3159000000, -1.273086e+001,
3160000000, -1.273959e+001,
3161000000, -1.274870e+001,
3162000000, -1.276960e+001,
3163000000, -1.280505e+001,
3164000000, -1.284371e+001,
3165000000, -1.285501e+001,
3166000000, -1.288294e+001,
3167000000, -1.289308e+001,
3168000000, -1.291243e+001,
3169000000, -1.291265e+001,
3170000000, -1.288467e+001,
3171000000, -1.286262e+001,
3172000000, -1.285850e+001,
3173000000, -1.283568e+001,
3174000000, -1.282457e+001,
3175000000, -1.279840e+001,
3176000000, -1.278815e+001,
3177000000, -1.279074e+001,
3178000000, -1.277100e+001,
3179000000, -1.277526e+001,
3180000000, -1.277213e+001,
3181000000, -1.278961e+001,
3182000000, -1.279266e+001,
3183000000, -1.281432e+001,
3184000000, -1.284793e+001,
3185000000, -1.284429e+001,
3186000000, -1.288278e+001,
3187000000, -1.291978e+001,
3188000000, -1.292594e+001,
3189000000, -1.295163e+001,
3190000000, -1.296644e+001,
3191000000, -1.297488e+001,
3192000000, -1.299402e+001,
3193000000, -1.300003e+001,
3194000000, -1.302246e+001,
3195000000, -1.303223e+001,
3196000000, -1.305696e+001,
3197000000, -1.307069e+001,
3198000000, -1.310329e+001,
3199000000, -1.312015e+001,
3200000000, -1.313537e+001,
3201000000, -1.316273e+001,
3202000000, -1.319133e+001,
3203000000, -1.320263e+001,
3204000000, -1.320008e+001,
3205000000, -1.321267e+001,
3206000000, -1.322252e+001,
3207000000, -1.322161e+001,
3208000000, -1.321552e+001,
3209000000, -1.322308e+001,
3210000000, -1.323464e+001,
3211000000, -1.323024e+001,
3212000000, -1.322585e+001,
3213000000, -1.321376e+001,
3214000000, -1.320872e+001,
3215000000, -1.319801e+001,
3216000000, -1.318120e+001,
3217000000, -1.317889e+001,
3218000000, -1.315742e+001,
3219000000, -1.315386e+001,
3220000000, -1.317496e+001,
3221000000, -1.319495e+001,
3222000000, -1.320143e+001,
3223000000, -1.323219e+001,
3224000000, -1.326076e+001,
3225000000, -1.330624e+001,
3226000000, -1.335629e+001,
3227000000, -1.339024e+001,
3228000000, -1.339586e+001,
3229000000, -1.343373e+001,
3230000000, -1.346212e+001,
3231000000, -1.345386e+001,
3232000000, -1.346615e+001,
3233000000, -1.343419e+001,
3234000000, -1.344707e+001,
3235000000, -1.343582e+001,
3236000000, -1.344328e+001,
3237000000, -1.344689e+001,
3238000000, -1.344874e+001,
3239000000, -1.346516e+001,
3240000000, -1.349339e+001,
3241000000, -1.352553e+001,
3242000000, -1.354976e+001,
3243000000, -1.357173e+001,
3244000000, -1.360554e+001,
3245000000, -1.365311e+001,
3246000000, -1.365170e+001,
3247000000, -1.369729e+001,
3248000000, -1.370464e+001,
3249000000, -1.373221e+001,
3250000000, -1.373677e+001,
3251000000, -1.376412e+001,
3252000000, -1.378927e+001,
3253000000, -1.380057e+001,
3254000000, -1.380368e+001,
3255000000, -1.383212e+001,
3256000000, -1.382932e+001,
3257000000, -1.383148e+001,
3258000000, -1.383015e+001,
3259000000, -1.381800e+001,
3260000000, -1.380655e+001,
3261000000, -1.380578e+001,
3262000000, -1.378726e+001,
3263000000, -1.378709e+001,
3264000000, -1.379507e+001,
3265000000, -1.380279e+001,
3266000000, -1.383282e+001,
3267000000, -1.382283e+001,
3268000000, -1.386452e+001,
3269000000, -1.387891e+001,
3270000000, -1.388706e+001,
3271000000, -1.390123e+001,
3272000000, -1.390297e+001,
3273000000, -1.391362e+001,
3274000000, -1.391302e+001,
3275000000, -1.391179e+001,
3276000000, -1.390857e+001,
3277000000, -1.389522e+001,
3278000000, -1.388703e+001,
3279000000, -1.385807e+001,
3280000000, -1.382414e+001,
3281000000, -1.377334e+001,
3282000000, -1.375298e+001,
3283000000, -1.372437e+001,
3284000000, -1.369859e+001,
3285000000, -1.368717e+001,
3286000000, -1.369407e+001,
3287000000, -1.370165e+001,
3288000000, -1.371652e+001,
3289000000, -1.373839e+001,
3290000000, -1.376185e+001,
3291000000, -1.378114e+001,
3292000000, -1.381664e+001,
3293000000, -1.383164e+001,
3294000000, -1.385128e+001,
3295000000, -1.386385e+001,
3296000000, -1.383226e+001,
3297000000, -1.385815e+001,
3298000000, -1.382608e+001,
3299000000, -1.381066e+001,
3300000000, -1.377721e+001,
3301000000, -1.376646e+001,
3302000000, -1.374913e+001,
3303000000, -1.373122e+001,
3304000000, -1.370613e+001,
3305000000, -1.368446e+001,
3306000000, -1.368196e+001,
3307000000, -1.367943e+001,
3308000000, -1.366560e+001,
3309000000, -1.366748e+001,
3310000000, -1.367548e+001,
3311000000, -1.366530e+001,
3312000000, -1.367832e+001,
3313000000, -1.366693e+001,
3314000000, -1.365951e+001,
3315000000, -1.368705e+001,
3316000000, -1.367674e+001,
3317000000, -1.366821e+001,
3318000000, -1.368990e+001,
3319000000, -1.369741e+001,
3320000000, -1.371441e+001,
3321000000, -1.371753e+001,
3322000000, -1.372475e+001,
3323000000, -1.373185e+001,
3324000000, -1.375812e+001,
3325000000, -1.376833e+001,
3326000000, -1.379652e+001,
3327000000, -1.382181e+001,
3328000000, -1.382933e+001,
3329000000, -1.386346e+001,
3330000000, -1.387977e+001,
3331000000, -1.388117e+001,
3332000000, -1.388291e+001,
3333000000, -1.390977e+001,
3334000000, -1.391289e+001,
3335000000, -1.392325e+001,
3336000000, -1.395293e+001,
3337000000, -1.395348e+001,
3338000000, -1.396038e+001,
3339000000, -1.398199e+001,
3340000000, -1.398337e+001,
3341000000, -1.401676e+001,
3342000000, -1.402562e+001,
3343000000, -1.403037e+001,
3344000000, -1.405207e+001,
3345000000, -1.406070e+001,
3346000000, -1.406880e+001,
3347000000, -1.407312e+001,
3348000000, -1.409619e+001,
3349000000, -1.409197e+001,
3350000000, -1.409593e+001,
3351000000, -1.409073e+001,
3352000000, -1.410113e+001,
3353000000, -1.409481e+001,
3354000000, -1.410544e+001,
3355000000, -1.410384e+001,
3356000000, -1.410525e+001,
3357000000, -1.410352e+001,
3358000000, -1.410117e+001,
3359000000, -1.409816e+001,
3360000000, -1.409265e+001,
3361000000, -1.407806e+001,
3362000000, -1.407312e+001,
3363000000, -1.406706e+001,
3364000000, -1.405208e+001,
3365000000, -1.404712e+001,
3366000000, -1.403996e+001,
3367000000, -1.403240e+001,
3368000000, -1.402555e+001,
3369000000, -1.401477e+001,
3370000000, -1.398698e+001,
3371000000, -1.400034e+001,
3372000000, -1.401510e+001,
3373000000, -1.401282e+001,
3374000000, -1.402767e+001,
3375000000, -1.404505e+001,
3376000000, -1.403497e+001,
3377000000, -1.408459e+001,
3378000000, -1.409422e+001,
3379000000, -1.410733e+001,
3380000000, -1.412111e+001,
3381000000, -1.412645e+001,
3382000000, -1.413449e+001,
3383000000, -1.411266e+001,
3384000000, -1.409356e+001,
3385000000, -1.404791e+001,
3386000000, -1.404748e+001,
3387000000, -1.398746e+001,
3388000000, -1.396355e+001,
3389000000, -1.393238e+001,
3390000000, -1.389462e+001,
3391000000, -1.385554e+001,
3392000000, -1.382844e+001,
3393000000, -1.380414e+001,
3394000000, -1.379643e+001,
3395000000, -1.376084e+001,
3396000000, -1.376593e+001,
3397000000, -1.377145e+001,
3398000000, -1.376776e+001,
3399000000, -1.376724e+001,
3400000000, -1.378598e+001,
3401000000, -1.379991e+001,
3402000000, -1.382286e+001,
3403000000, -1.385600e+001,
3404000000, -1.388860e+001,
3405000000, -1.391214e+001,
3406000000, -1.393537e+001,
3407000000, -1.395107e+001,
3408000000, -1.394092e+001,
3409000000, -1.394713e+001,
3410000000, -1.394566e+001,
3411000000, -1.394437e+001,
3412000000, -1.391270e+001,
3413000000, -1.391699e+001,
3414000000, -1.390539e+001,
3415000000, -1.389435e+001,
3416000000, -1.389664e+001,
3417000000, -1.389794e+001,
3418000000, -1.390753e+001,
3419000000, -1.389915e+001,
3420000000, -1.392570e+001,
3421000000, -1.392955e+001,
3422000000, -1.395606e+001,
3423000000, -1.394903e+001,
3424000000, -1.396963e+001,
3425000000, -1.399081e+001,
3426000000, -1.401080e+001,
3427000000, -1.401122e+001,
3428000000, -1.398504e+001,
3429000000, -1.398576e+001,
3430000000, -1.396709e+001,
3431000000, -1.396204e+001,
3432000000, -1.394476e+001,
3433000000, -1.393985e+001,
3434000000, -1.393107e+001,
3435000000, -1.392161e+001,
3436000000, -1.391709e+001,
3437000000, -1.390238e+001,
3438000000, -1.389610e+001,
3439000000, -1.390291e+001,
3440000000, -1.388791e+001,
3441000000, -1.388024e+001,
3442000000, -1.386708e+001,
3443000000, -1.384089e+001,
3444000000, -1.384003e+001,
3445000000, -1.381200e+001,
3446000000, -1.379948e+001,
3447000000, -1.378217e+001,
3448000000, -1.378123e+001,
3449000000, -1.378855e+001,
3450000000, -1.379616e+001,
3451000000, -1.380277e+001,
3452000000, -1.380410e+001,
3453000000, -1.380566e+001,
3454000000, -1.381715e+001,
3455000000, -1.382519e+001,
3456000000, -1.380282e+001,
3457000000, -1.379148e+001,
3458000000, -1.379384e+001,
3459000000, -1.379584e+001,
3460000000, -1.377553e+001,
3461000000, -1.377898e+001,
3462000000, -1.376526e+001,
3463000000, -1.377928e+001,
3464000000, -1.376489e+001,
3465000000, -1.376262e+001,
3466000000, -1.376063e+001,
3467000000, -1.374599e+001,
3468000000, -1.375992e+001,
3469000000, -1.373642e+001,
3470000000, -1.373332e+001,
3471000000, -1.372626e+001,
3472000000, -1.371695e+001,
3473000000, -1.373609e+001,
3474000000, -1.372483e+001,
3475000000, -1.370940e+001,
3476000000, -1.370852e+001,
3477000000, -1.372912e+001,
3478000000, -1.372596e+001,
3479000000, -1.372426e+001,
3480000000, -1.375176e+001,
3481000000, -1.376892e+001,
3482000000, -1.378695e+001,
3483000000, -1.380257e+001,
3484000000, -1.380813e+001,
3485000000, -1.381747e+001,
3486000000, -1.383902e+001,
3487000000, -1.383700e+001,
3488000000, -1.382071e+001,
3489000000, -1.380426e+001,
3490000000, -1.379478e+001,
3491000000, -1.377597e+001,
3492000000, -1.377171e+001,
3493000000, -1.372748e+001,
3494000000, -1.373531e+001,
3495000000, -1.370355e+001,
3496000000, -1.372841e+001,
3497000000, -1.372253e+001,
3498000000, -1.370319e+001,
3499000000, -1.372813e+001,
3500000000, -1.373199e+001,
3501000000, -1.372660e+001,
3502000000, -1.373408e+001,
3503000000, -1.371842e+001,
3504000000, -1.374010e+001,
3505000000, -1.371939e+001,
3506000000, -1.371978e+001,
3507000000, -1.371370e+001,
3508000000, -1.370216e+001,
3509000000, -1.368970e+001,
3510000000, -1.368005e+001,
3511000000, -1.367105e+001,
3512000000, -1.365047e+001,
3513000000, -1.363795e+001,
3514000000, -1.363169e+001,
3515000000, -1.361188e+001,
3516000000, -1.359697e+001,
3517000000, -1.358727e+001,
3518000000, -1.356529e+001,
3519000000, -1.356970e+001,
3520000000, -1.355085e+001,
3521000000, -1.353974e+001,
3522000000, -1.351886e+001,
3523000000, -1.351939e+001,
3524000000, -1.352305e+001,
3525000000, -1.352901e+001,
3526000000, -1.353810e+001,
3527000000, -1.354261e+001,
3528000000, -1.354761e+001,
3529000000, -1.359268e+001,
3530000000, -1.359842e+001,
3531000000, -1.364541e+001,
3532000000, -1.358839e+001,
3533000000, -1.363416e+001,
3534000000, -1.362879e+001,
3535000000, -1.361640e+001,
3536000000, -1.362386e+001,
3537000000, -1.361750e+001,
3538000000, -1.359625e+001,
3539000000, -1.359668e+001,
3540000000, -1.359302e+001,
3541000000, -1.357902e+001,
3542000000, -1.358163e+001,
3543000000, -1.357194e+001,
3544000000, -1.357447e+001,
3545000000, -1.356479e+001,
3546000000, -1.356394e+001,
3547000000, -1.355102e+001,
3548000000, -1.354885e+001,
3549000000, -1.351754e+001,
3550000000, -1.350239e+001,
3551000000, -1.349199e+001,
3552000000, -1.347640e+001,
3553000000, -1.348339e+001,
3554000000, -1.347111e+001,
3555000000, -1.346771e+001,
3556000000, -1.348102e+001,
3557000000, -1.347776e+001,
3558000000, -1.348594e+001,
3559000000, -1.347387e+001,
3560000000, -1.348423e+001,
3561000000, -1.351018e+001,
3562000000, -1.350563e+001,
3563000000, -1.352702e+001,
3564000000, -1.352352e+001,
3565000000, -1.353492e+001,
3566000000, -1.353848e+001,
3567000000, -1.353242e+001,
3568000000, -1.353431e+001,
3569000000, -1.352469e+001,
3570000000, -1.349952e+001,
3571000000, -1.347685e+001,
3572000000, -1.346194e+001,
3573000000, -1.345083e+001,
3574000000, -1.343064e+001,
3575000000, -1.343335e+001,
3576000000, -1.344140e+001,
3577000000, -1.344377e+001,
3578000000, -1.343980e+001,
3579000000, -1.345279e+001,
3580000000, -1.345455e+001,
3581000000, -1.345373e+001,
3582000000, -1.345822e+001,
3583000000, -1.345735e+001,
3584000000, -1.345314e+001,
3585000000, -1.344237e+001,
3586000000, -1.344135e+001,
3587000000, -1.342162e+001,
3588000000, -1.342387e+001,
3589000000, -1.339292e+001,
3590000000, -1.335794e+001,
3591000000, -1.334112e+001,
3592000000, -1.331494e+001,
3593000000, -1.327980e+001,
3594000000, -1.324006e+001,
3595000000, -1.322363e+001,
3596000000, -1.318771e+001,
3597000000, -1.315800e+001,
3598000000, -1.314675e+001,
3599000000, -1.310468e+001,
3600000000, -1.308921e+001,
3601000000, -1.307287e+001,
3602000000, -1.304528e+001,
3603000000, -1.302801e+001,
3604000000, -1.304372e+001,
3605000000, -1.305106e+001,
3606000000, -1.304146e+001,
3607000000, -1.306520e+001,
3608000000, -1.307228e+001,
3609000000, -1.308517e+001,
3610000000, -1.309475e+001,
3611000000, -1.310355e+001,
3612000000, -1.310306e+001,
3613000000, -1.309740e+001,
3614000000, -1.309079e+001,
3615000000, -1.308351e+001,
3616000000, -1.306562e+001,
3617000000, -1.305087e+001,
3618000000, -1.302780e+001,
3619000000, -1.303684e+001,
3620000000, -1.303770e+001,
3621000000, -1.301130e+001,
3622000000, -1.301005e+001,
3623000000, -1.301255e+001,
3624000000, -1.299518e+001,
3625000000, -1.298956e+001,
3626000000, -1.299510e+001,
3627000000, -1.300471e+001,
3628000000, -1.300704e+001,
3629000000, -1.299955e+001,
3630000000, -1.299927e+001,
3631000000, -1.301479e+001,
3632000000, -1.301085e+001,
3633000000, -1.301486e+001,
3634000000, -1.301228e+001,
3635000000, -1.301547e+001,
3636000000, -1.301803e+001,
3637000000, -1.300201e+001,
3638000000, -1.300058e+001,
3639000000, -1.299605e+001,
3640000000, -1.296596e+001,
3641000000, -1.294861e+001,
3642000000, -1.294013e+001,
3643000000, -1.290932e+001,
3644000000, -1.287309e+001,
3645000000, -1.285824e+001,
3646000000, -1.281531e+001,
3647000000, -1.278019e+001,
3648000000, -1.276576e+001,
3649000000, -1.273886e+001,
3650000000, -1.270786e+001,
3651000000, -1.269255e+001,
3652000000, -1.270041e+001,
3653000000, -1.269291e+001,
3654000000, -1.271836e+001,
3655000000, -1.274032e+001,
3656000000, -1.273691e+001,
3657000000, -1.276389e+001,
3658000000, -1.277505e+001,
3659000000, -1.279884e+001,
3660000000, -1.279932e+001,
3661000000, -1.280997e+001,
3662000000, -1.281438e+001,
3663000000, -1.281386e+001,
3664000000, -1.279866e+001,
3665000000, -1.278524e+001,
3666000000, -1.275863e+001,
3667000000, -1.274635e+001,
3668000000, -1.271635e+001,
3669000000, -1.270599e+001,
3670000000, -1.269877e+001,
3671000000, -1.268561e+001,
3672000000, -1.267697e+001,
3673000000, -1.267002e+001,
3674000000, -1.265694e+001,
3675000000, -1.266290e+001,
3676000000, -1.265551e+001,
3677000000, -1.265814e+001,
3678000000, -1.266159e+001,
3679000000, -1.268743e+001,
3680000000, -1.268960e+001,
3681000000, -1.273246e+001,
3682000000, -1.273891e+001,
3683000000, -1.276495e+001,
3684000000, -1.278167e+001,
3685000000, -1.281943e+001,
3686000000, -1.282339e+001,
3687000000, -1.282743e+001,
3688000000, -1.283718e+001,
3689000000, -1.282879e+001,
3690000000, -1.283795e+001,
3691000000, -1.282653e+001,
3692000000, -1.281959e+001,
3693000000, -1.281896e+001,
3694000000, -1.282262e+001,
3695000000, -1.281594e+001,
3696000000, -1.282244e+001,
3697000000, -1.282919e+001,
3698000000, -1.283428e+001,
3699000000, -1.284644e+001,
3700000000, -1.285191e+001,
3701000000, -1.284456e+001,
3702000000, -1.282665e+001,
3703000000, -1.281758e+001,
3704000000, -1.279671e+001,
3705000000, -1.280088e+001,
3706000000, -1.277183e+001,
3707000000, -1.276453e+001,
3708000000, -1.279945e+001,
3709000000, -1.279222e+001,
3710000000, -1.281205e+001,
3711000000, -1.284411e+001,
