FILENAME,E:\T_23\23_USP\ACQUIREDDATA\PVF07.MDB,
STEP,1,0,0,0,FORWARD,
SCAN,61,15,-15,0.5,REVERSE,
FREQ,SINGLE,1,7.5,
BEAM,1,
AXIS,0,
BINS,2,
SELECTED SCAN,ALL,
SELECTED FREQ,ALL,
SELECTED BEAM,ALL,
SELECTED BINS,ALL,
DATA_START,
-038.492,-035.2551,-038.766,-113.5661,
-037.839,-024.0424,-038.596,-113.4494,
-037.242,-012.0794,-038.452,-113.3470,
-036.653,-000.1385,-038.366,-113.4376,
-036.092,011.1532,-038.476,-113.4388,
-035.598,020.3769,-038.655,-113.5286,
-035.128,028.4565,-038.645,-113.5226,
-034.707,037.5479,-038.478,-113.4605,
-034.295,048.0888,-038.419,-113.4042,
-033.931,057.1197,-038.636,-113.5530,
-033.526,063.7376,-038.778,-113.6151,
-033.098,070.3933,-038.633,-113.5175,
-032.667,077.5876,-038.536,-113.4658,
-032.238,084.2830,-038.616,-113.5288,
-031.808,090.4795,-038.605,-113.5678,
-031.372,096.8806,-038.574,-113.5103,
-030.942,103.5518,-038.579,-113.4761,
-030.515,109.3171,-038.609,-113.4948,
-030.106,114.2913,-038.708,-113.5523,
-029.713,119.1983,-038.776,-113.6052,
-029.342,123.7954,-038.857,-113.6504,
-028.972,127.8619,-038.847,-113.6740,
-028.646,133.0665,-038.703,-113.5793,
-028.335,138.6288,-038.665,-113.5799,
-028.054,143.2870,-038.722,-113.6275,
-027.802,146.9422,-038.736,-113.6347,
-027.639,151.3218,-038.643,-113.5665,
-027.514,155.4727,-038.768,-113.6482,
-027.431,158.7392,-038.894,-113.7229,
-027.396,161.2527,-038.925,-113.7159,
-027.398,163.8350,-038.840,-113.6614,
-027.477,166.3900,-038.777,-113.6142,
-027.585,168.9170,-038.656,-113.5712,
-027.723,171.4538,-038.573,-113.5249,
-027.954,173.7251,-038.586,-113.5714,
-028.223,175.6489,-038.660,-113.6538,
-028.514,177.1772,-038.693,-113.6732,
-028.829,178.2726,-038.727,-113.6883,
-029.160,178.8647,-038.670,-113.6652,
-029.518,178.6266,-038.661,-113.6649,
-029.892,178.0989,-038.633,-113.6346,
-030.297,178.4134,-038.597,-113.5956,
-030.724,179.8253,-038.690,-113.6479,
-031.166,-179.1302,-038.883,-113.7858,
-031.601,-179.2184,-038.951,-113.7995,
-032.033,179.8521,-038.765,-113.6957,
-032.453,179.2587,-038.478,-113.5457,
-032.864,178.4056,-038.439,-113.5112,
-033.248,176.9433,-038.465,-113.5021,
-033.644,174.9934,-038.566,-113.5306,
-034.036,172.5063,-038.652,-113.5623,
-034.419,169.3452,-038.705,-113.5512,
-034.818,166.4345,-038.599,-113.4836,
-035.230,163.5143,-038.516,-113.4408,
-035.655,160.0899,-038.555,-113.4673,
-036.127,155.4051,-038.528,-113.4342,
-036.626,150.4021,-038.449,-113.3840,
-037.145,145.3499,-038.475,-113.4225,
-037.656,140.1130,-038.588,-113.4739,
-038.261,134.0006,-038.703,-113.5309,
-038.864,127.8931,-038.745,-113.5553,
DATA_END,
