FILENAME,E:\T_23\23_USP\ACQUIREDDATA\PVF03.MDB,
STEP,1,0,0,0,FORWARD,
SCAN,61,15,-15,0.5,REVERSE,
FREQ,SINGLE,1,3,
BEAM,1,
AXIS,0,
BINS,2,
SELECTED SCAN,ALL,
SELECTED FREQ,ALL,
SELECTED BEAM,ALL,
SELECTED BINS,ALL,
DATA_START,
-036.162,-011.9861,-037.075,-019.8639,
-035.770,-012.9368,-037.030,-019.8480,
-035.424,-014.1591,-036.983,-019.8000,
-035.086,-015.0517,-036.972,-019.7916,
-034.766,-016.1174,-036.975,-019.8220,
-034.475,-017.2160,-036.974,-019.8042,
-034.184,-018.2870,-036.937,-019.7643,
-033.913,-019.2047,-036.930,-019.7602,
-033.638,-020.0236,-036.909,-019.7388,
-033.379,-021.0980,-036.926,-019.7477,
-033.151,-022.2829,-036.939,-019.7661,
-032.925,-023.4860,-036.960,-019.7858,
-032.717,-024.7738,-037.005,-019.8262,
-032.517,-026.1335,-037.023,-019.8486,
-032.322,-027.3414,-037.029,-019.8669,
-032.143,-028.3782,-037.027,-019.8489,
-031.981,-029.4406,-037.041,-019.8578,
-031.819,-030.4040,-037.058,-019.8710,
-031.687,-031.4656,-037.054,-019.8848,
-031.557,-032.2830,-037.051,-019.8545,
-031.436,-032.9525,-037.040,-019.8572,
-031.329,-033.6091,-037.008,-019.8108,
-031.238,-034.1988,-036.958,-019.7682,
-031.146,-034.7018,-036.880,-019.7103,
-031.072,-035.0359,-036.820,-019.6498,
-031.016,-035.2715,-036.762,-019.6160,
-030.967,-035.4506,-036.707,-019.5450,
-030.932,-035.5556,-036.655,-019.4972,
-030.900,-035.7153,-036.611,-019.4550,
-030.891,-035.8559,-036.585,-019.4432,
-030.891,-035.8406,-036.565,-019.4133,
-030.910,-035.6909,-036.561,-019.4073,
-030.931,-035.7197,-036.568,-019.4342,
-030.967,-035.4838,-036.606,-019.4486,
-031.017,-035.2645,-036.664,-019.5074,
-031.075,-035.2165,-036.714,-019.5631,
-031.145,-035.0133,-036.768,-019.6305,
-031.236,-034.8399,-036.821,-019.6439,
-031.327,-034.5614,-036.900,-019.7048,
-031.448,-034.1113,-036.985,-019.8035,
-031.573,-033.7418,-037.036,-019.8434,
-031.707,-033.1908,-037.115,-019.8954,
-031.849,-032.7199,-037.143,-019.9126,
-032.007,-032.1565,-037.141,-019.9404,
-032.170,-031.3216,-037.150,-019.9423,
-032.349,-030.4072,-037.130,-019.9413,
-032.542,-029.3318,-037.127,-019.9098,
-032.734,-028.2168,-037.081,-019.8900,
-032.952,-027.1035,-037.009,-019.8234,
-033.181,-025.7581,-036.950,-019.7732,
-033.422,-024.6258,-036.921,-019.7494,
-033.675,-023.6830,-036.884,-019.7115,
-033.937,-022.5249,-036.847,-019.6688,
-034.208,-021.5879,-036.809,-019.6279,
-034.494,-020.7681,-036.805,-019.6500,
-034.790,-019.5910,-036.813,-019.6571,
-035.112,-018.4965,-036.835,-019.6356,
-035.447,-017.4113,-036.861,-019.6903,
-035.799,-016.0833,-036.903,-019.7019,
-036.173,-014.5775,-036.931,-019.7583,
-036.516,-012.8768,-036.946,-019.7653,
DATA_END,
