FILENAME,E:\T_23\23_USP\ACQUIREDDATA\PVF063.MDB,
STEP,1,0,0,0,FORWARD,
SCAN,61,-15,15,0.5,FORWARD,
FREQ,SINGLE,1,6.3,
BEAM,1,
AXIS,0,
BINS,2,
SELECTED SCAN,ALL,
SELECTED FREQ,ALL,
SELECTED BEAM,ALL,
SELECTED BINS,ALL,
DATA_START,
-037.128,068.4412,-037.407,-112.7376,
-036.719,075.0931,-037.492,-112.7973,
-036.307,080.4524,-037.393,-112.7492,
-035.928,084.7401,-037.345,-112.7344,
-035.540,088.5284,-037.311,-112.7671,
-035.168,092.3969,-037.309,-112.7396,
-034.784,095.6576,-037.372,-112.7503,
-034.402,098.5340,-037.398,-112.7535,
-034.009,101.5162,-037.387,-112.7256,
-033.598,104.1434,-037.291,-112.6236,
-033.159,106.1283,-037.232,-112.5713,
-032.715,107.9358,-037.257,-112.6166,
-032.257,110.0045,-037.324,-112.6653,
-031.798,111.7292,-037.362,-112.7024,
-031.323,112.9288,-037.382,-112.7261,
-030.854,113.1204,-037.363,-112.7002,
-030.394,113.4108,-037.348,-112.6880,
-029.963,113.5758,-037.245,-112.6170,
-029.562,113.8456,-037.188,-112.5663,
-029.173,114.4583,-037.191,-112.5609,
-028.783,115.5789,-037.249,-112.6222,
-028.409,116.8791,-037.246,-112.6387,
-028.023,116.8961,-037.233,-112.6295,
-027.708,116.0024,-037.322,-112.6985,
-027.423,115.1278,-037.426,-112.7893,
-027.214,114.5123,-037.467,-112.8235,
-027.040,113.3880,-037.444,-112.8006,
-026.911,111.5390,-037.469,-112.8144,
-026.814,109.3727,-037.510,-112.8658,
-026.749,107.4977,-037.540,-112.8521,
-026.719,104.8285,-037.497,-112.8299,
-026.718,102.2754,-037.471,-112.8211,
-026.767,099.6860,-037.505,-112.8605,
-026.847,097.7318,-037.512,-112.8732,
-026.958,095.3584,-037.442,-112.8619,
-027.102,091.7566,-037.316,-112.7706,
-027.272,086.8432,-037.240,-112.7005,
-027.485,081.5313,-037.283,-112.6873,
-027.746,076.8295,-037.385,-112.7754,
-028.107,073.0265,-037.403,-112.7723,
-028.467,069.3531,-037.288,-112.6834,
-028.828,064.3478,-037.221,-112.6171,
-029.209,059.1269,-037.298,-112.6779,
-029.602,053.9124,-037.463,-112.8054,
-029.994,048.7925,-037.584,-112.9146,
-030.427,043.4366,-037.657,-112.9990,
-030.912,038.3214,-037.637,-112.9436,
-031.400,033.0268,-037.518,-112.8266,
-031.872,026.5027,-037.366,-112.6942,
-032.365,018.9187,-037.345,-112.6801,
-032.849,011.9409,-037.611,-112.8895,
-033.296,007.1632,-037.773,-113.0655,
-033.753,002.5403,-037.541,-112.9059,
-034.155,-005.1054,-037.119,-112.5193,
-034.529,-015.4299,-036.903,-112.2454,
-034.876,-026.5772,-037.121,-112.4372,
-035.225,-035.5109,-037.530,-112.7677,
-035.538,-042.3592,-037.695,-112.9024,
-035.877,-049.7597,-037.552,-112.7797,
-036.171,-059.1816,-037.332,-112.6059,
-036.528,-069.5327,-037.259,-112.5517,
DATA_END,
