FILENAME,E:\T_23\23_USP\ACQUIREDDATA\2AHHF07.MDB,
STEP,1,-90,-90,0,FORWARD,
SCAN,360,-179,180,1,FORWARD,
FREQ,SINGLE,1,7.5,
BEAM,1,
AXIS,0,
BINS,2,
SELECTED SCAN,ALL,
SELECTED FREQ,ALL,
SELECTED BEAM,ALL,
SELECTED BINS,ALL,
DATA_START,
-065.893,132.2147,-046.144,-113.8661,
-065.671,131.8298,-046.127,-113.8775,
-065.607,130.9870,-046.154,-113.8867,
-065.549,129.4575,-046.174,-113.8817,
-065.500,128.3155,-046.195,-113.9002,
-065.472,126.2982,-046.185,-113.8896,
-065.428,125.3766,-046.188,-113.9073,
-065.361,124.3235,-046.200,-113.9087,
-065.129,125.2254,-046.213,-113.9070,
-064.975,125.9046,-046.257,-113.9239,
-064.742,128.6340,-046.264,-113.9203,
-064.524,131.5637,-046.253,-113.9236,
-064.274,133.3844,-046.201,-113.9046,
-064.114,135.8270,-046.221,-113.9034,
-063.935,137.0954,-046.188,-113.9010,
-063.841,138.0491,-046.175,-113.8987,
-063.669,138.2974,-046.177,-113.9018,
-063.625,138.3257,-046.158,-113.9004,
-063.505,138.4300,-046.147,-113.8987,
-063.312,138.8169,-046.119,-113.8973,
-063.154,139.6283,-046.149,-113.8920,
-063.006,140.4104,-046.143,-113.8912,
-062.785,142.0419,-046.126,-113.8965,
-062.618,143.7062,-046.157,-113.9092,
-062.531,145.1478,-046.170,-113.9101,
-062.389,147.7151,-046.197,-113.9219,
-062.272,149.0998,-046.179,-113.9123,
-062.141,150.3294,-046.170,-113.9103,
-061.893,151.6305,-046.158,-113.9126,
-061.683,152.5655,-046.156,-113.8935,
-061.498,152.9114,-046.169,-113.9007,
-061.242,153.1451,-046.189,-113.9018,
-061.081,153.6684,-046.177,-113.9132,
-060.964,154.4513,-046.156,-113.9047,
-060.765,156.0994,-046.175,-113.9087,
-060.652,157.1005,-046.192,-113.9134,
-060.497,158.6757,-046.176,-113.9108,
-060.216,161.0665,-046.184,-113.9123,
-060.104,162.4851,-046.174,-113.9115,
-059.939,164.0573,-046.220,-113.9289,
-059.737,166.8072,-046.181,-113.9231,
-059.577,168.2635,-046.184,-113.9248,
-059.368,170.9514,-046.155,-113.9100,
-059.191,174.3829,-046.118,-113.8940,
-059.117,176.3188,-046.114,-113.8827,
-059.015,179.7191,-046.133,-113.8917,
-058.966,-177.5798,-046.109,-113.8857,
-058.904,-175.4915,-046.111,-113.8874,
-058.753,-172.1378,-046.089,-113.8843,
-058.650,-169.0100,-046.098,-113.8976,
-058.577,-166.4342,-046.099,-113.8925,
-058.553,-162.2521,-046.126,-113.9013,
-058.533,-158.8110,-046.127,-113.9209,
-058.534,-155.4271,-046.160,-113.9370,
-058.567,-150.6495,-046.169,-113.9392,
-058.576,-147.2691,-046.194,-113.9454,
-058.499,-142.9232,-046.198,-113.9530,
-058.459,-137.2959,-046.223,-113.9528,
-058.438,-133.7159,-046.218,-113.9530,
-058.419,-129.6213,-046.193,-113.9556,
-058.480,-125.2546,-046.184,-113.9533,
-058.531,-122.1047,-046.189,-113.9605,
-058.602,-117.7224,-046.171,-113.9547,
-058.729,-112.6519,-046.144,-113.9517,
-058.811,-109.3113,-046.100,-113.9465,
-058.961,-104.7094,-046.117,-113.9511,
-059.164,-100.0118,-046.147,-113.9559,
-059.333,-096.2300,-046.183,-113.9574,
-059.563,-090.6465,-046.209,-113.9820,
-059.701,-086.1220,-046.230,-113.9909,
-059.867,-082.0983,-046.207,-113.9751,
-060.078,-076.6015,-046.217,-113.9785,
-060.226,-072.4745,-046.222,-113.9781,
-060.480,-067.9811,-046.210,-113.9843,
-060.870,-062.3891,-046.217,-113.9921,
-061.100,-058.0252,-046.213,-113.9883,
-061.431,-052.6046,-046.207,-113.9777,
-061.818,-046.5825,-046.198,-113.9754,
-062.148,-041.7574,-046.194,-113.9816,
-062.510,-036.6319,-046.218,-113.9831,
-063.025,-031.3749,-046.184,-113.9857,
-063.422,-027.1199,-046.188,-113.9846,
-063.930,-022.5020,-046.214,-113.9730,
-064.510,-017.8523,-046.230,-113.9869,
-065.008,-014.9445,-046.233,-113.9838,
-065.744,-010.2764,-046.217,-113.9659,
-066.457,-007.1640,-046.203,-113.9677,
-067.034,-004.2028,-046.192,-113.9597,
-067.908,-000.0368,-046.174,-113.9316,
-068.519,001.9131,-046.158,-113.9213,
-069.069,003.6508,-046.178,-113.9266,
-069.851,005.5766,-046.145,-113.9241,
-070.292,004.5444,-046.153,-113.9193,
-070.764,003.7553,-046.173,-113.9257,
-071.062,000.8687,-046.191,-113.9326,
-071.103,-000.8232,-046.197,-113.9321,
-070.936,-003.0459,-046.217,-113.9409,
-070.830,-005.8542,-046.231,-113.9280,
-070.703,-006.5876,-046.261,-113.9375,
-070.373,-010.1394,-046.280,-113.9356,
-070.085,-011.9183,-046.276,-113.9382,
-069.839,-013.2823,-046.275,-113.9284,
-069.210,-015.0120,-046.258,-113.9321,
-068.652,-015.5700,-046.218,-113.9304,
-068.338,-014.7149,-046.213,-113.9358,
-067.713,-012.3089,-046.176,-113.9259,
-067.448,-010.3693,-046.177,-113.9406,
-067.192,-007.6924,-046.172,-113.9432,
-066.966,-003.3367,-046.158,-113.9512,
-066.918,000.1578,-046.155,-113.9470,
-066.870,003.5150,-046.167,-113.9485,
-066.968,008.2716,-046.187,-113.9588,
-067.173,012.0950,-046.202,-113.9553,
-067.403,016.7508,-046.225,-113.9622,
-067.655,024.4749,-046.244,-113.9665,
-067.831,029.8572,-046.232,-113.9538,
-067.975,038.0777,-046.225,-113.9435,
-067.793,045.2429,-046.215,-113.9338,
-067.675,049.8686,-046.200,-113.9347,
-067.360,056.0138,-046.209,-113.9395,
-067.153,060.5438,-046.232,-113.9564,
-066.960,065.4894,-046.195,-113.9512,
-066.775,071.0518,-046.175,-113.9498,
-066.637,075.8806,-046.176,-113.9495,
-066.442,080.0059,-046.217,-113.9560,
-066.175,086.8128,-046.236,-113.9578,
-065.940,092.5303,-046.219,-113.9565,
-065.666,097.9180,-046.198,-113.9505,
-065.167,106.1192,-046.194,-113.9629,
-064.851,111.4102,-046.195,-113.9676,
-064.489,117.2334,-046.184,-113.9633,
-064.049,124.3539,-046.212,-113.9873,
-063.839,128.4986,-046.195,-113.9788,
-063.595,133.7013,-046.179,-113.9711,
-063.304,138.6771,-046.172,-113.9731,
-063.117,142.0866,-046.171,-113.9783,
-062.799,145.6821,-046.173,-113.9927,
-062.600,148.4798,-046.188,-114.0056,
-062.615,150.5299,-046.199,-114.0101,
-062.588,153.1685,-046.208,-113.9910,
-062.778,155.9676,-046.266,-114.0040,
-062.910,158.0563,-046.257,-114.0015,
-063.157,161.5730,-046.269,-113.9967,
-063.466,165.2638,-046.283,-113.9939,
-063.624,167.9522,-046.293,-113.9997,
-063.844,173.4651,-046.261,-113.9829,
-063.965,177.8026,-046.234,-113.9747,
-063.965,-177.9945,-046.222,-113.9707,
-063.727,-171.4762,-046.224,-113.9751,
-063.530,-167.7797,-046.187,-113.9625,
-063.353,-164.8091,-046.149,-113.9514,
-063.179,-160.7677,-046.149,-113.9440,
-063.131,-158.3402,-046.168,-113.9583,
-063.194,-155.4406,-046.178,-113.9652,
-063.258,-152.1193,-046.216,-113.9738,
-063.302,-149.6896,-046.220,-113.9700,
-063.348,-146.9439,-046.244,-113.9780,
-063.311,-143.9641,-046.229,-113.9800,
-063.298,-142.3542,-046.244,-113.9880,
-063.190,-139.9359,-046.239,-113.9781,
-063.077,-137.9272,-046.209,-113.9833,
-062.999,-136.3081,-046.205,-113.9720,
-062.835,-135.0251,-046.203,-113.9701,
-062.481,-133.2518,-046.217,-113.9736,
-062.188,-132.5698,-046.219,-113.9753,
-061.776,-132.1783,-046.259,-113.9822,
-061.407,-132.4266,-046.279,-113.9889,
-061.169,-133.1266,-046.296,-113.9901,
-060.939,-135.1507,-046.289,-113.9921,
-060.833,-136.4155,-046.271,-113.9987,
-060.890,-137.3296,-046.284,-114.0024,
-061.024,-139.1059,-046.267,-114.0089,
-061.203,-140.1575,-046.258,-113.9926,
-061.353,-140.5861,-046.237,-113.9901,
-061.580,-141.0213,-046.194,-113.9864,
-061.689,-141.0490,-046.182,-113.9838,
-061.700,-140.7233,-046.174,-113.9911,
-061.687,-139.9106,-046.172,-113.9782,
-061.609,-139.4132,-046.186,-113.9814,
-061.487,-139.5242,-046.177,-113.9828,
-061.411,-140.0633,-046.150,-113.9722,
-061.403,-140.7328,-046.146,-113.9722,
-061.356,-141.8521,-046.150,-113.9574,
-061.400,-142.8785,-046.174,-113.9528,
-061.476,-143.7567,-046.182,-113.9551,
-061.519,-144.9812,-046.203,-113.9589,
-061.658,-145.9795,-046.225,-113.9660,
-061.741,-146.7009,-046.228,-113.9739,
-061.916,-148.0693,-046.231,-113.9793,
-062.005,-148.6451,-046.217,-113.9784,
-062.087,-149.4222,-046.224,-113.9713,
-062.179,-150.9190,-046.218,-113.9818,
-062.336,-152.4226,-046.204,-113.9785,
-062.434,-154.2344,-046.167,-113.9611,
-062.684,-157.1354,-046.154,-113.9449,
-062.910,-159.8723,-046.130,-113.9473,
-063.135,-162.8180,-046.139,-113.9383,
-063.378,-165.9454,-046.174,-113.9564,
-063.639,-167.6591,-046.176,-113.9568,
-063.949,-169.1850,-046.178,-113.9340,
-064.479,-170.0112,-046.180,-113.9420,
-064.905,-170.4706,-046.183,-113.9423,
-065.457,-169.8143,-046.152,-113.9245,
-066.185,-168.6832,-046.168,-113.9234,
-066.710,-168.5170,-046.186,-113.9140,
-067.460,-168.7900,-046.198,-113.9179,
-068.181,-169.0524,-046.175,-113.9038,
-068.720,-170.5704,-046.173,-113.8930,
-069.527,-173.4312,-046.187,-113.9014,
-070.169,-174.7653,-046.176,-113.8909,
-070.772,-177.2011,-046.158,-113.8865,
-071.824,-179.9245,-046.170,-113.8891,
-072.148,179.0841,-046.181,-113.8933,
-072.697,179.0763,-046.178,-113.9129,
-073.159,178.0542,-046.185,-113.9256,
-073.410,177.1143,-046.180,-113.9173,
-073.817,175.6230,-046.168,-113.9322,
-074.164,175.8870,-046.182,-113.9551,
-074.399,175.8621,-046.177,-113.9491,
-074.584,177.2066,-046.173,-113.9642,
-075.010,-179.7598,-046.163,-113.9585,
-075.243,-178.3778,-046.144,-113.9542,
-075.051,-173.7903,-046.141,-113.9614,
-075.319,-165.4739,-046.160,-113.9507,
-075.286,-162.9628,-046.161,-113.9564,
-074.869,-161.2986,-046.175,-113.9561,
-074.301,-159.3141,-046.172,-113.9631,
-074.045,-158.6211,-046.153,-113.9602,
-073.479,-158.4008,-046.150,-113.9500,
-073.243,-157.8268,-046.150,-113.9609,
-073.057,-156.8732,-046.173,-113.9691,
-073.226,-156.3716,-046.200,-113.9710,
-073.147,-156.8480,-046.184,-113.9696,
-072.824,-155.0598,-046.195,-113.9638,
-072.594,-154.5173,-046.212,-113.9699,
-072.190,-152.4126,-046.228,-113.9702,
-071.728,-153.6220,-046.218,-113.9669,
-071.084,-153.9588,-046.203,-113.9813,
-070.495,-153.0221,-046.185,-113.9693,
-069.925,-154.4189,-046.164,-113.9632,
-069.276,-156.1866,-046.130,-113.9573,
-068.833,-156.3647,-046.120,-113.9440,
-068.355,-157.5066,-046.103,-113.9332,
-068.002,-159.0739,-046.126,-113.9435,
-067.813,-159.4081,-046.122,-113.9263,
-067.474,-160.2739,-046.112,-113.9291,
-067.289,-161.0407,-046.125,-113.9291,
-067.145,-161.8038,-046.143,-113.9322,
-066.852,-162.5708,-046.145,-113.9328,
-066.584,-162.0845,-046.162,-113.9327,
-066.262,-161.8868,-046.157,-113.9454,
-065.726,-162.2734,-046.146,-113.9460,
-065.519,-163.0071,-046.121,-113.9276,
-065.052,-164.9568,-046.125,-113.9301,
-064.647,-167.8685,-046.145,-113.9528,
-064.454,-170.6085,-046.171,-113.9509,
-064.107,-174.1495,-046.172,-113.9557,
-063.800,-178.8303,-046.153,-113.9390,
-063.691,178.3837,-046.166,-113.9463,
-063.347,175.1627,-046.171,-113.9485,
-062.978,171.7258,-046.176,-113.9407,
-062.745,169.7264,-046.161,-113.9316,
-062.395,167.3220,-046.143,-113.9370,
-062.082,165.2322,-046.159,-113.9409,
-061.827,163.1198,-046.174,-113.9365,
-061.478,160.4492,-046.166,-113.9226,
-061.255,158.4371,-046.158,-113.9251,
-061.086,156.9887,-046.150,-113.9326,
-060.909,154.0522,-046.136,-113.9292,
-060.742,151.7729,-046.125,-113.9191,
-060.593,149.8031,-046.118,-113.9274,
-060.464,146.4158,-046.092,-113.9366,
-060.354,144.1646,-046.082,-113.9346,
-060.287,142.3210,-046.069,-113.9398,
-060.185,139.2137,-046.103,-113.9493,
-060.181,137.6442,-046.095,-113.9380,
-060.157,135.3504,-046.158,-113.9711,
-060.148,132.1508,-046.200,-113.9823,
-060.105,130.6131,-046.222,-114.0032,
-060.048,128.4799,-046.225,-114.0035,
-059.989,126.6192,-046.220,-113.9987,
-059.927,125.2296,-046.214,-114.0006,
-059.880,123.3015,-046.198,-113.9992,
-059.896,121.0002,-046.195,-114.0037,
-059.871,119.5782,-046.181,-113.9855,
-059.835,117.6013,-046.155,-114.0129,
-059.762,115.7172,-046.158,-114.0234,
-059.704,114.1974,-046.193,-114.0291,
-059.661,112.0597,-046.200,-114.0310,
-059.682,110.2181,-046.187,-114.0398,
-059.655,108.4337,-046.170,-114.0384,
-059.688,106.1047,-046.213,-114.0435,
-059.695,104.1346,-046.195,-114.0399,
-059.732,102.6668,-046.173,-114.0326,
-059.835,100.9708,-046.199,-114.0438,
-059.932,099.3725,-046.209,-114.0497,
-060.039,097.5709,-046.228,-114.0440,
-060.094,095.1436,-046.226,-114.0434,
-060.091,093.5274,-046.203,-114.0312,
-060.027,091.9896,-046.183,-114.0309,
-059.916,090.5083,-046.223,-114.0455,
-059.861,089.4628,-046.235,-114.0420,
-059.884,089.0164,-046.228,-114.0503,
-059.964,088.6163,-046.226,-114.0396,
-060.060,088.2558,-046.201,-114.0220,
-060.211,087.6304,-046.207,-114.0464,
-060.336,086.7573,-046.199,-114.0401,
-060.505,086.0829,-046.202,-114.0391,
-060.696,085.0313,-046.224,-114.0427,
-060.783,084.0622,-046.210,-114.0406,
-060.852,083.7850,-046.234,-114.0459,
-060.951,082.5834,-046.201,-114.0494,
-061.089,081.8253,-046.231,-114.0344,
-061.217,081.5631,-046.179,-114.0073,
-061.550,080.7441,-046.152,-113.9915,
-061.834,080.1216,-046.142,-113.9722,
-062.295,079.2443,-046.193,-113.9730,
-062.766,078.0576,-046.146,-113.9636,
-063.280,077.0555,-046.148,-113.9578,
-064.001,077.3353,-046.155,-113.9671,
-064.704,077.7848,-046.175,-113.9885,
-065.290,077.7299,-046.158,-113.9873,
-066.473,078.5024,-046.214,-114.0018,
-067.411,079.4328,-046.233,-114.0026,
-067.938,078.6864,-046.214,-114.0069,
-068.475,079.2906,-046.231,-114.0129,
-069.005,078.9964,-046.220,-114.0125,
-069.110,079.9594,-046.214,-114.0067,
-069.292,078.8048,-046.166,-113.9985,
-069.454,080.0256,-046.174,-113.9988,
-069.651,080.7912,-046.133,-113.9910,
-069.999,081.3212,-046.114,-113.9977,
-070.191,083.1061,-046.107,-113.9813,
-070.669,082.4254,-046.109,-113.9821,
-070.889,080.9963,-046.174,-113.9974,
-071.159,081.3384,-046.201,-113.9919,
-071.241,080.5987,-046.201,-113.9907,
-071.402,080.8115,-046.217,-114.0097,
-071.429,081.7096,-046.225,-114.0024,
-071.313,081.9533,-046.256,-114.0134,
-071.253,085.5439,-046.280,-114.0124,
-071.179,087.9626,-046.253,-114.0042,
-070.897,089.9371,-046.261,-113.9941,
-070.841,093.1533,-046.247,-113.9959,
-070.798,095.0163,-046.243,-114.0009,
-070.548,097.7767,-046.277,-113.9996,
-070.643,101.1713,-046.281,-114.0111,
-070.744,102.5408,-046.261,-113.9991,
-070.462,105.8023,-046.255,-113.9947,
-070.344,109.1285,-046.213,-113.9758,
-070.023,112.1663,-046.233,-113.9899,
-069.524,117.8053,-046.218,-114.0018,
-069.171,121.5728,-046.249,-114.0014,
-068.621,125.0273,-046.300,-114.0257,
-068.052,128.4721,-046.276,-114.0212,
-067.741,129.1969,-046.256,-114.0208,
-067.312,130.1977,-046.264,-114.0261,
-066.728,131.0869,-046.287,-114.0331,
-066.327,131.5522,-046.251,-114.0274,
-065.820,132.0078,-046.253,-114.0393,
DATA_END,
