FILENAME,E:\T_23\23_USP\ACQUIREDDATA\4AVVF13.MDB,
STEP,1,-90,-90,0,FORWARD,
SCAN,360,180,-179,1,REVERSE,
FREQ,SINGLE,1,13,
BEAM,1,
AXIS,0,
BINS,2,
SELECTED SCAN,ALL,
SELECTED FREQ,ALL,
SELECTED BEAM,ALL,
SELECTED BINS,ALL,
DATA_START,
-067.803,-125.3266,-042.137,156.9021,
-066.358,-124.8078,-042.130,156.9018,
-065.285,-124.3523,-042.133,156.8906,
-064.444,-125.0553,-042.146,156.8762,
-063.663,-126.5216,-042.197,156.8626,
-063.049,-128.3356,-042.232,156.8485,
-062.514,-130.3452,-042.279,156.8172,
-061.918,-131.8302,-042.299,156.8273,
-061.188,-132.3258,-042.313,156.8129,
-060.657,-132.5419,-042.302,156.8030,
-060.233,-132.2941,-042.281,156.8106,
-059.860,-131.5858,-042.293,156.8026,
-059.552,-130.3900,-042.270,156.8205,
-059.228,-128.6481,-042.284,156.7913,
-058.901,-125.3458,-042.273,156.7851,
-058.662,-122.2949,-042.257,156.7948,
-058.307,-118.4065,-042.245,156.8109,
-057.723,-114.0224,-042.167,156.8206,
-057.186,-110.8613,-042.148,156.8229,
-056.515,-106.9448,-042.147,156.8300,
-055.819,-103.3299,-042.203,156.8072,
-055.301,-100.9821,-042.270,156.7936,
-054.673,-098.0163,-042.345,156.7612,
-054.114,-095.3505,-042.314,156.7803,
-053.744,-092.8683,-042.234,156.8137,
-053.318,-089.5921,-042.162,156.8376,
-052.963,-086.1722,-042.156,156.8385,
-052.736,-083.6555,-042.197,156.8324,
-052.402,-079.8322,-042.243,156.8023,
-052.129,-075.7455,-042.211,156.8133,
-051.945,-072.7377,-042.180,156.8099,
-051.745,-067.9369,-042.134,156.8143,
-051.656,-064.0358,-042.122,156.7962,
-051.633,-060.1329,-042.153,156.8005,
-051.643,-052.9177,-042.201,156.7922,
-051.667,-047.1636,-042.205,156.7805,
-051.669,-040.6307,-042.201,156.7797,
-051.637,-031.2936,-042.191,156.7938,
-051.568,-024.5548,-042.199,156.7977,
-051.494,-017.5954,-042.230,156.8052,
-051.411,-009.6580,-042.295,156.7890,
-051.346,-003.2951,-042.326,156.7857,
-051.274,004.9488,-042.331,156.7988,
-051.182,014.5614,-042.238,156.7995,
-051.108,022.2427,-042.203,156.7953,
-051.030,030.8036,-042.153,156.8076,
-050.998,039.9325,-042.165,156.7932,
-051.028,046.9053,-042.201,156.7932,
-051.114,056.5088,-042.294,156.7648,
-051.215,065.9944,-042.325,156.7741,
-051.290,073.4136,-042.301,156.7921,
-051.392,084.3490,-042.250,156.8177,
-051.482,094.1150,-042.250,156.8166,
-051.583,102.0540,-042.217,156.7970,
-051.784,113.6733,-042.248,156.7525,
-051.979,122.8655,-042.256,156.7262,
-052.137,131.7782,-042.273,156.7073,
-052.324,144.4822,-042.228,156.7166,
-052.476,154.1286,-042.215,156.7323,
-052.700,163.9075,-042.221,156.7573,
-053.104,176.3351,-042.260,156.7693,
-053.520,-173.6263,-042.285,156.7558,
-054.012,-162.3846,-042.261,156.7479,
-054.638,-148.7075,-042.198,156.7381,
-055.153,-137.9964,-042.171,156.7460,
-055.792,-126.0305,-042.154,156.7717,
-056.580,-111.8474,-042.169,156.7831,
-057.195,-100.2902,-042.206,156.7872,
-057.892,-084.5002,-042.205,156.7757,
-058.511,-069.5302,-042.186,156.7890,
-058.997,-057.2712,-042.200,156.7762,
-059.705,-041.2648,-042.206,156.7690,
-060.458,-027.4410,-042.205,156.7621,
-061.283,-015.6119,-042.182,156.7780,
-062.708,000.8821,-042.162,156.7827,
-064.153,014.4925,-042.137,156.8044,
-065.903,029.0490,-042.084,156.8142,
-068.666,050.0756,-042.081,156.8256,
-071.385,071.3062,-042.071,156.8255,
-074.736,107.6466,-042.122,156.8056,
-075.014,172.1216,-042.173,156.7871,
-071.999,-151.7819,-042.194,156.7803,
-068.810,-124.2513,-042.187,156.7759,
-066.443,-105.0462,-042.120,156.8133,
-065.019,-092.0641,-042.087,156.8169,
-063.559,-077.2509,-042.081,156.8247,
-062.516,-063.2105,-042.109,156.8100,
-061.916,-051.2006,-042.144,156.8038,
-061.419,-034.2485,-042.140,156.8024,
-061.128,-019.0664,-042.117,156.8020,
-060.959,-006.1630,-042.113,156.8074,
-060.684,014.1895,-042.125,156.8069,
-060.483,030.7272,-042.166,156.7850,
-060.283,045.4903,-042.201,156.7743,
-059.909,067.6713,-042.194,156.7626,
-059.611,084.8037,-042.162,156.7812,
-059.207,101.9075,-042.116,156.7924,
-058.562,124.3029,-042.051,156.8030,
-058.045,140.2915,-042.065,156.7789,
-057.479,156.7066,-042.119,156.7857,
-056.858,175.3056,-042.134,156.7937,
-056.405,-170.9210,-042.114,156.8042,
-055.902,-156.0219,-042.105,156.7879,
-055.385,-139.6125,-042.122,156.7682,
-055.007,-127.3681,-042.130,156.7720,
-054.629,-113.3118,-042.149,156.7814,
-054.286,-098.5749,-042.182,156.7997,
-054.085,-087.5923,-042.174,156.7833,
-053.872,-073.2256,-042.154,156.7859,
-053.706,-059.6702,-042.132,156.7601,
-053.616,-048.8601,-042.141,156.7729,
-053.559,-033.3435,-042.166,156.7718,
-053.593,-020.1806,-042.171,156.7672,
-053.704,-009.0136,-042.180,156.7999,
-053.940,007.6327,-042.142,156.8077,
-054.129,020.7462,-042.133,156.8066,
-054.315,033.6979,-042.126,156.7798,
-054.556,051.2992,-042.169,156.7720,
-054.762,063.8511,-042.128,156.7789,
-055.066,077.1348,-042.082,156.8027,
-055.454,092.8285,-042.048,156.8095,
-055.741,105.1092,-042.002,156.8010,
-056.017,119.6438,-042.002,156.7787,
-056.354,136.6190,-042.038,156.7490,
-056.648,149.7643,-042.089,156.7507,
-056.990,165.8419,-042.151,156.7417,
-057.268,-175.4878,-042.188,156.7284,
-057.359,-162.0228,-042.180,156.7221,
-057.429,-145.8319,-042.081,156.7329,
-057.558,-131.0227,-042.086,156.7503,
-057.655,-119.3295,-042.090,156.7557,
-057.750,-102.1122,-042.091,156.7602,
-057.830,-087.5761,-042.116,156.7604,
-057.866,-075.1040,-042.127,156.7599,
-057.821,-058.1160,-042.136,156.7687,
-057.830,-045.8841,-042.110,156.7800,
-057.883,-034.7480,-042.118,156.7836,
-057.948,-020.5791,-042.161,156.7886,
-058.082,-009.2108,-042.159,156.7896,
-058.265,002.7845,-042.153,156.7810,
-058.374,016.9896,-042.143,156.7912,
-058.524,028.6801,-042.119,156.7857,
-058.707,041.8001,-042.104,156.7915,
-058.964,055.7542,-042.159,156.7809,
-059.117,065.6644,-042.176,156.7613,
-059.491,076.8949,-042.190,156.7745,
-059.941,088.7902,-042.164,156.7875,
-060.310,098.1832,-042.157,156.7995,
-060.861,110.4631,-042.146,156.7883,
-061.347,122.6318,-042.146,156.7898,
-061.715,132.1584,-042.177,156.7838,
-062.242,145.7367,-042.212,156.7903,
-062.690,157.4109,-042.220,156.7879,
-063.124,168.4163,-042.222,156.7846,
-063.817,-175.9018,-042.220,156.7894,
-064.347,-163.5243,-042.226,156.7744,
-065.019,-151.0268,-042.262,156.7755,
-065.637,-135.3616,-042.302,156.7572,
-066.110,-123.3599,-042.308,156.7462,
-066.545,-109.7468,-042.299,156.7362,
-066.967,-093.1493,-042.246,156.7716,
-067.242,-079.5963,-042.214,156.7808,
-067.361,-064.6389,-042.183,156.7947,
-067.263,-048.3243,-042.151,156.8004,
-067.002,-036.5200,-042.151,156.7933,
-066.533,-023.9914,-042.100,156.8079,
-065.921,-012.3853,-042.093,156.8371,
-065.393,-004.0926,-042.136,156.8219,
-064.768,006.3091,-042.195,156.8097,
-064.202,015.2651,-042.231,156.7905,
-063.778,021.6500,-042.260,156.7794,
-063.308,030.0910,-042.260,156.7835,
-062.923,035.9045,-042.212,156.7854,
-062.561,040.2160,-042.151,156.8043,
-062.115,045.1109,-042.154,156.8139,
-061.733,048.0735,-042.226,156.7926,
-061.379,050.9460,-042.296,156.7320,
-060.995,055.3715,-042.389,156.7240,
-060.786,058.4900,-042.361,156.7303,
-060.614,061.3160,-042.260,156.7613,
-060.367,063.2000,-042.162,156.7906,
-060.119,064.3291,-042.150,156.7780,
-059.797,065.6347,-042.183,156.7695,
-059.431,067.4493,-042.270,156.7397,
-059.183,068.7694,-042.282,156.7388,
-059.008,070.1985,-042.290,156.7297,
-058.929,071.2364,-042.237,156.7509,
-058.896,072.0515,-042.183,156.7760,
-058.840,072.5055,-042.212,156.7617,
-058.763,073.3705,-042.219,156.7708,
-058.764,073.4917,-042.248,156.7535,
-058.897,072.9248,-042.283,156.7413,
-059.041,071.5402,-042.260,156.7549,
-059.057,069.5175,-042.218,156.7500,
-058.881,067.0217,-042.155,156.7759,
-058.661,065.3813,-042.151,156.7806,
-058.474,063.8718,-042.112,156.7921,
-058.239,060.8391,-042.134,156.7782,
-057.994,058.0248,-042.116,156.7814,
-057.629,054.9858,-042.071,156.7959,
-057.125,051.8723,-042.104,156.7831,
-056.781,049.7926,-042.122,156.7703,
-056.510,047.1219,-042.155,156.7424,
-056.311,043.4775,-042.195,156.7301,
-056.169,040.6985,-042.227,156.7297,
-056.012,037.0330,-042.218,156.7356,
-055.825,032.8422,-042.174,156.7472,
-055.684,029.7046,-042.129,156.7826,
-055.547,025.5917,-042.045,156.8091,
-055.443,021.1176,-042.029,156.8099,
-055.374,016.9531,-042.057,156.8147,
-055.263,011.3788,-042.094,156.8002,
-055.185,006.1071,-042.123,156.7881,
-055.130,001.0498,-042.144,156.7875,
-055.063,-005.1426,-042.186,156.7573,
-055.065,-010.1252,-042.218,156.7293,
-055.107,-015.4954,-042.178,156.7410,
-055.250,-022.2910,-042.140,156.7352,
-055.401,-028.2995,-042.101,156.7430,
-055.588,-035.3281,-042.108,156.7198,
-055.797,-043.5546,-042.153,156.6790,
-055.947,-050.3765,-042.251,156.6640,
-056.173,-058.9045,-042.291,156.6423,
-056.516,-068.0848,-042.264,156.6467,
-056.877,-075.8551,-042.225,156.6618,
-057.340,-086.8142,-042.164,156.6931,
-057.818,-098.5341,-042.136,156.6896,
-058.159,-108.3474,-042.166,156.6741,
-058.506,-122.7430,-042.186,156.6620,
-058.754,-135.7522,-042.208,156.6568,
-058.906,-146.9250,-042.236,156.6537,
-059.047,-164.1800,-042.279,156.6396,
-059.025,-178.5295,-042.326,156.6482,
-058.958,169.9257,-042.328,156.6619,
-058.851,153.8939,-042.326,156.6771,
-058.748,140.6709,-042.312,156.6718,
-058.618,128.4285,-042.338,156.6607,
-058.439,112.5415,-042.349,156.6615,
-058.301,100.3981,-042.338,156.6838,
-058.255,088.8456,-042.307,156.6922,
-058.233,076.7997,-042.264,156.6977,
-058.285,066.3979,-042.223,156.6918,
-058.478,055.2717,-042.163,156.7021,
-058.835,043.0284,-042.195,156.6882,
-059.236,031.9649,-042.185,156.6970,
-059.683,019.5929,-042.209,156.7053,
-060.140,008.0448,-042.260,156.7056,
-060.717,-002.5839,-042.264,156.7120,
-061.808,-017.2267,-042.278,156.7116,
-063.157,-030.6125,-042.264,156.7254,
-064.677,-044.3711,-042.224,156.7475,
-067.189,-065.9743,-042.177,156.7902,
-069.560,-086.3062,-042.118,156.7970,
-072.375,-114.6396,-042.101,156.8144,
-074.161,-173.3305,-042.094,156.8337,
-072.300,147.8949,-042.112,156.8322,
-069.549,120.5358,-042.130,156.8157,
-066.667,098.5173,-042.208,156.7871,
-065.132,084.7093,-042.219,156.7888,
-063.729,070.6125,-042.212,156.7768,
-062.638,054.8715,-042.167,156.7855,
-062.114,043.3858,-042.135,156.7888,
-061.560,028.6884,-042.116,156.8143,
-061.013,011.8383,-042.122,156.8203,
-060.658,-000.8050,-042.176,156.8076,
-060.319,-015.7962,-042.253,156.7753,
-060.147,-031.5812,-042.290,156.7656,
-060.036,-043.5620,-042.278,156.7681,
-059.970,-060.7079,-042.182,156.8087,
-060.019,-077.0043,-042.123,156.8381,
-060.109,-090.7621,-042.091,156.8459,
-060.123,-110.0610,-042.060,156.8575,
-060.079,-126.5532,-042.151,156.8191,
-060.008,-141.1987,-042.199,156.8048,
-059.894,-162.3284,-042.264,156.7857,
-059.685,-179.4172,-042.279,156.7803,
-059.355,164.6155,-042.281,156.7851,
-058.741,144.8439,-042.288,156.7608,
-058.254,130.0847,-042.310,156.7693,
-057.764,115.5047,-042.311,156.7672,
-057.210,097.8409,-042.309,156.7751,
-056.799,084.0372,-042.299,156.7778,
-056.352,069.3912,-042.296,156.7664,
-055.898,053.5071,-042.279,156.7621,
-055.566,041.6254,-042.250,156.7684,
-055.201,027.4220,-042.182,156.7921,
-054.906,012.5612,-042.143,156.8263,
-054.686,000.8071,-042.126,156.8463,
-054.395,-014.9056,-042.118,156.8189,
-054.111,-029.2935,-042.132,156.7995,
-053.888,-040.4166,-042.157,156.7519,
-053.607,-055.5863,-042.253,156.7069,
-053.413,-068.5373,-042.276,156.7047,
-053.232,-079.5971,-042.289,156.7135,
-053.061,-095.2872,-042.221,156.7259,
-052.986,-107.2732,-042.211,156.7148,
-052.941,-118.8424,-042.184,156.7124,
-052.929,-134.5495,-042.122,156.7197,
-052.913,-146.2442,-042.108,156.7376,
-052.861,-158.9636,-042.104,156.7494,
-052.813,-174.9334,-042.214,156.7404,
-052.783,173.8003,-042.223,156.7329,
-052.732,161.1920,-042.241,156.6928,
-052.681,146.4820,-042.272,156.6489,
-052.659,136.0310,-042.264,156.6388,
-052.647,122.9081,-042.237,156.6669,
-052.585,109.2242,-042.169,156.7115,
-052.535,099.0498,-042.123,156.7519,
-052.550,085.3533,-042.105,156.7436,
-052.568,073.6531,-042.223,156.6933,
-052.554,064.4965,-042.319,156.6522,
-052.563,051.2482,-042.414,156.6205,
-052.580,040.0739,-042.391,156.6290,
-052.590,030.3411,-042.305,156.6699,
-052.596,016.3020,-042.163,156.7617,
-052.674,006.0461,-042.133,156.7910,
-052.785,-003.8186,-042.144,156.7993,
-052.990,-016.4983,-042.161,156.7699,
-053.145,-025.2858,-042.204,156.7447,
-053.335,-034.6065,-042.212,156.7246,
-053.606,-046.4413,-042.233,156.7239,
-053.825,-054.8578,-042.261,156.7275,
-054.077,-063.9207,-042.276,156.7365,
-054.308,-074.3291,-042.315,156.7513,
-054.463,-081.6113,-042.342,156.7495,
-054.711,-090.8700,-042.335,156.7434,
-054.997,-100.7114,-042.302,156.7424,
-055.237,-108.2196,-042.292,156.7305,
-055.583,-117.7243,-042.282,156.7388,
-055.993,-126.3984,-042.241,156.7553,
-056.373,-133.1531,-042.219,156.7597,
-056.893,-141.6626,-042.204,156.7651,
-057.369,-149.0717,-042.173,156.7730,
-057.768,-155.3735,-042.103,156.8075,
-058.314,-163.4348,-042.107,156.8184,
-058.780,-169.8120,-042.153,156.7919,
-059.216,-175.2084,-042.180,156.7958,
-059.806,177.7698,-042.258,156.7730,
-060.315,172.5089,-042.253,156.7807,
-060.883,168.0865,-042.240,156.8128,
-061.583,162.6788,-042.245,156.8015,
-062.197,158.3876,-042.236,156.7923,
-062.946,154.6067,-042.218,156.7980,
-063.829,149.9319,-042.209,156.8016,
-064.579,146.7536,-042.183,156.8127,
-065.516,142.7079,-042.144,156.8141,
-066.681,140.5877,-042.164,156.8141,
-067.613,139.4370,-042.183,156.8089,
-068.706,139.6199,-042.249,156.7911,
-069.814,140.6874,-042.256,156.7946,
-070.708,141.8036,-042.223,156.7967,
-072.147,148.7200,-042.188,156.8148,
-073.163,157.2217,-042.119,156.8225,
-073.627,168.1867,-042.159,156.8168,
-073.863,-175.9485,-042.197,156.8048,
-073.638,-165.4442,-042.258,156.7833,
-073.404,-154.4597,-042.297,156.7633,
-072.418,-140.6977,-042.324,156.7571,
-071.147,-133.1130,-042.272,156.7739,
-069.308,-128.0257,-042.196,156.7865,
DATA_END,
